# Focal plane mapping cut-and-pasted from DESI-0530v16 tab "S,Z,N fits"
#   R = CS5 sqrt(X**2 + Y**2) [mm]
#   Z = CS5 Z coordinate [mm]
#   S = distance along curved focal surface [mm]
#   N = nutation angle of positioner alignment (wrt +Z) [degrees]
# all units in mm.
#
R Z S N
0.0    0.000000    0.000000    0.001722
1.0    -0.000083    1.000000    0.010606
2.0    -0.000331    2.000000    0.019486
3.0    -0.000745    3.000000    0.028362
4.0    -0.001325    4.000000    0.037235
5.0    -0.002070    5.000001    0.046104
6.0    -0.002980    6.000001    0.054970
7.0    -0.004056    7.000002    0.063833
8.0    -0.005298    8.000002    0.072694
9.0    -0.006705    9.000003    0.081551
10.0    -0.008278    10.000005    0.090407
11.0    -0.010017    11.000006    0.099260
12.0    -0.011921    12.000008    0.108111
13.0    -0.013990    13.000010    0.116960
14.0    -0.016225    14.000013    0.125807
15.0    -0.018626    15.000015    0.134653
16.0    -0.021192    16.000019    0.143497
17.0    -0.023924    17.000022    0.152340
18.0    -0.026821    18.000027    0.161182
19.0    -0.029884    19.000031    0.170024
20.0    -0.033113    20.000037    0.178864
21.0    -0.036507    21.000042    0.187704
22.0    -0.040066    22.000049    0.196543
23.0    -0.043792    23.000056    0.205383
24.0    -0.047682    24.000063    0.214222
25.0    -0.051739    25.000071    0.223061
26.0    -0.055961    26.000080    0.231900
27.0    -0.060348    27.000090    0.240740
28.0    -0.064901    28.000100    0.249580
29.0    -0.069620    29.000111    0.258421
30.0    -0.074504    30.000123    0.267262
31.0    -0.079554    31.000136    0.276104
32.0    -0.084769    32.000150    0.284948
33.0    -0.090150    33.000164    0.293792
34.0    -0.095696    34.000180    0.302638
35.0    -0.101408    35.000196    0.311484
36.0    -0.107286    36.000213    0.320333
37.0    -0.113329    37.000231    0.329182
38.0    -0.119538    38.000251    0.338034
39.0    -0.125912    39.000271    0.346887
40.0    -0.132452    40.000292    0.355742
41.0    -0.139157    41.000315    0.364598
42.0    -0.146028    42.000338    0.373458
43.0    -0.153065    43.000363    0.382319
44.0    -0.160267    44.000389    0.391184
45.0    -0.167635    45.000416    0.400052
46.0    -0.175168    46.000445    0.408924
47.0    -0.182867    47.000474    0.417799
48.0    -0.190731    48.000505    0.426678
49.0    -0.198762    49.000537    0.435562
50.0    -0.206957    50.000571    0.444450
51.0    -0.215318    51.000606    0.453343
52.0    -0.223845    52.000642    0.462241
53.0    -0.232538    53.000680    0.471145
54.0    -0.241396    54.000719    0.480054
55.0    -0.250419    55.000760    0.488969
56.0    -0.259608    56.000802    0.497890
57.0    -0.268963    57.000846    0.506817
58.0    -0.278483    58.000891    0.515750
59.0    -0.288169    59.000938    0.524690
60.0    -0.298021    60.000987    0.533638
61.0    -0.308038    61.001037    0.542592
62.0    -0.318220    62.001089    0.551553
63.0    -0.328569    63.001142    0.560522
64.0    -0.339082    64.001198    0.569498
65.0    -0.349762    65.001255    0.578482
66.0    -0.360607    66.001313    0.587474
67.0    -0.371617    67.001374    0.596474
68.0    -0.382794    68.001437    0.605482
69.0    -0.394135    69.001501    0.614498
70.0    -0.405643    70.001567    0.623523
71.0    -0.417316    71.001635    0.632556
72.0    -0.429154    72.001705    0.641598
73.0    -0.441158    73.001777    0.650648
74.0    -0.453328    74.001851    0.659707
75.0    -0.465664    75.001927    0.668776
76.0    -0.478165    76.002006    0.677853
77.0    -0.490831    77.002086    0.686939
78.0    -0.503663    78.002168    0.696034
79.0    -0.516661    79.002253    0.705139
80.0    -0.529825    80.002339    0.714253
81.0    -0.543154    81.002428    0.723376
82.0    -0.556648    82.002519    0.732509
83.0    -0.570308    83.002612    0.741653
84.0    -0.584134    84.002708    0.750806
85.0    -0.598126    85.002806    0.759971
86.0    -0.612283    86.002906    0.769145
87.0    -0.626605    87.003009    0.778331
88.0    -0.641094    88.003114    0.787528
89.0    -0.655748    89.003221    0.796737
90.0    -0.670567    90.003331    0.805956
91.0    -0.685552    91.003443    0.815188
92.0    -0.700703    92.003558    0.824431
93.0    -0.716019    93.003675    0.833686
94.0    -0.731501    94.003795    0.842953
95.0    -0.747149    95.003917    0.852233
96.0    -0.762962    96.004042    0.861525
97.0    -0.778941    97.004170    0.870829
98.0    -0.795085    98.004300    0.880146
99.0    -0.811396    99.004433    0.889476
100.0    -0.827871    100.004569    0.898818
101.0    -0.844513    101.004708    0.908173
102.0    -0.861320    102.004849    0.917542
103.0    -0.878292    103.004993    0.926923
104.0    -0.895431    104.005140    0.936318
105.0    -0.912735    105.005289    0.945725
106.0    -0.930204    106.005442    0.955146
107.0    -0.947839    107.005597    0.964580
108.0    -0.965640    108.005756    0.974027
109.0    -0.983607    109.005917    0.983488
110.0    -1.001739    110.006082    0.992962
111.0    -1.020036    111.006249    1.002449
112.0    -1.038500    112.006419    1.011950
113.0    -1.057129    113.006593    1.021464
114.0    -1.075924    114.006770    1.030991
115.0    -1.094884    115.006949    1.040532
116.0    -1.114010    116.007132    1.050086
117.0    -1.133302    117.007318    1.059653
118.0    -1.152759    118.007508    1.069234
119.0    -1.172382    119.007700    1.078828
120.0    -1.192171    120.007896    1.088435
121.0    -1.212125    121.008095    1.098057
122.0    -1.232245    122.008297    1.107693
123.0    -1.252531    123.008503    1.117343
124.0    -1.272982    124.008712    1.127009
125.0    -1.293599    125.008925    1.136690
126.0    -1.314381    126.009141    1.146386
127.0    -1.335330    127.009360    1.156098
128.0    -1.356444    128.009583    1.165826
129.0    -1.377723    129.009809    1.175570
130.0    -1.399169    130.010039    1.185331
131.0    -1.420780    131.010273    1.195109
132.0    -1.442556    132.010510    1.204903
133.0    -1.464499    133.010750    1.214715
134.0    -1.486607    134.010995    1.224545
135.0    -1.508881    135.011243    1.234392
136.0    -1.531320    136.011495    1.244257
137.0    -1.553925    137.011750    1.254140
138.0    -1.576696    138.012009    1.264042
139.0    -1.599632    139.012272    1.273963
140.0    -1.622735    140.012539    1.283902
141.0    -1.646002    141.012810    1.293860
142.0    -1.669436    142.013084    1.303838
143.0    -1.693035    143.013363    1.313835
144.0    -1.716800    144.013645    1.323851
145.0    -1.740731    145.013931    1.333887
146.0    -1.764827    146.014222    1.343944
147.0    -1.789089    147.014516    1.354020
148.0    -1.813517    148.014814    1.364117
149.0    -1.838111    149.015117    1.374235
150.0    -1.862870    150.015423    1.384373
151.0    -1.887795    151.015734    1.394532
152.0    -1.912886    152.016048    1.404712
153.0    -1.938142    153.016367    1.414913
154.0    -1.963564    154.016690    1.425136
155.0    -1.989152    155.017018    1.435380
156.0    -2.014906    156.017349    1.445646
157.0    -2.040825    157.017685    1.455934
158.0    -2.066910    158.018025    1.466244
159.0    -2.093161    159.018370    1.476576
160.0    -2.119577    160.018719    1.486931
161.0    -2.146159    161.019072    1.497309
162.0    -2.172907    162.019429    1.507710
163.0    -2.199821    163.019792    1.518134
164.0    -2.226901    164.020158    1.528582
165.0    -2.254146    165.020529    1.539054
166.0    -2.281557    166.020905    1.549550
167.0    -2.309133    167.021285    1.560071
168.0    -2.336876    168.021670    1.570616
169.0    -2.364784    169.022059    1.581187
170.0    -2.392858    170.022453    1.591782
171.0    -2.421098    171.022852    1.602404
172.0    -2.449503    172.023255    1.613051
173.0    -2.478075    173.023663    1.623724
174.0    -2.506812    174.024076    1.634424
175.0    -2.535714    175.024494    1.645150
176.0    -2.564783    176.024916    1.655903
177.0    -2.594017    177.025343    1.666684
178.0    -2.623417    178.025775    1.677492
179.0    -2.652983    179.026212    1.688328
180.0    -2.682715    180.026654    1.699192
181.0    -2.712612    181.027101    1.710085
182.0    -2.742676    182.027553    1.721007
183.0    -2.772905    183.028010    1.731957
184.0    -2.803300    184.028471    1.742937
185.0    -2.833860    185.028938    1.753947
186.0    -2.864587    186.029410    1.764987
187.0    -2.895479    187.029887    1.776057
188.0    -2.926537    188.030370    1.787158
189.0    -2.957761    189.030857    1.798291
190.0    -2.989150    190.031349    1.809454
191.0    -3.020706    191.031847    1.820650
192.0    -3.052427    192.032350    1.831877
193.0    -3.084314    193.032858    1.843138
194.0    -3.116367    194.033372    1.854431
195.0    -3.148586    195.033891    1.865757
196.0    -3.180970    196.034415    1.877117
197.0    -3.213520    197.034945    1.888512
198.0    -3.246237    198.035480    1.899940
199.0    -3.279119    199.036020    1.911404
200.0    -3.312166    200.036566    1.922902
201.0    -3.345380    201.037118    1.934435
202.0    -3.378760    202.037675    1.946003
203.0    -3.412305    203.038237    1.957607
204.0    -3.446016    204.038805    1.969246
205.0    -3.479893    205.039379    1.980921
206.0    -3.513936    206.039958    1.992631
207.0    -3.548145    207.040543    2.004378
208.0    -3.582519    208.041134    2.016161
209.0    -3.617060    209.041730    2.027981
210.0    -3.651766    210.042332    2.039838
211.0    -3.686638    211.042940    2.051732
212.0    -3.721676    212.043554    2.063663
213.0    -3.756880    213.044173    2.075633
214.0    -3.792250    214.044798    2.087640
215.0    -3.827786    215.045430    2.099686
216.0    -3.863487    216.046067    2.111770
217.0    -3.899355    217.046710    2.123893
218.0    -3.935388    218.047359    2.136056
219.0    -3.971587    219.048014    2.148259
220.0    -4.007952    220.048675    2.160501
221.0    -4.044483    221.049342    2.172785
222.0    -4.081180    222.050015    2.185109
223.0    -4.118043    223.050694    2.197475
224.0    -4.155072    224.051379    2.209882
225.0    -4.192266    225.052071    2.222332
226.0    -4.229627    226.052768    2.234824
227.0    -4.267153    227.053472    2.247360
228.0    -4.304845    228.054182    2.259939
229.0    -4.342704    229.054899    2.272563
230.0    -4.380728    230.055621    2.285231
231.0    -4.418918    231.056350    2.297945
232.0    -4.457274    232.057086    2.310705
233.0    -4.495796    233.057827    2.323511
234.0    -4.534484    234.058575    2.336363
235.0    -4.573337    235.059330    2.349264
236.0    -4.612357    236.060091    2.362213
237.0    -4.651543    237.060858    2.375210
238.0    -4.690894    238.061632    2.388257
239.0    -4.730412    239.062413    2.401354
240.0    -4.770096    240.063200    2.414501
241.0    -4.809945    241.063994    2.427698
242.0    -4.849960    242.064794    2.440945
243.0    -4.890142    243.065601    2.454244
244.0    -4.930489    244.066415    2.467593
245.0    -4.971003    245.067235    2.480994
246.0    -5.011682    246.068062    2.494446
247.0    -5.052527    247.068896    2.507950
248.0    -5.093538    248.069736    2.521507
249.0    -5.134716    249.070584    2.535116
250.0    -5.176059    250.071438    2.548779
251.0    -5.217568    251.072299    2.562495
252.0    -5.259243    252.073167    2.576266
253.0    -5.301085    253.074042    2.590090
254.0    -5.343092    254.074924    2.603970
255.0    -5.385265    255.075813    2.617905
256.0    -5.427604    256.076709    2.631896
257.0    -5.470109    257.077612    2.645943
258.0    -5.512781    258.078522    2.660048
259.0    -5.555618    259.079439    2.674210
260.0    -5.598621    260.080363    2.688430
261.0    -5.641791    261.081295    2.702709
262.0    -5.685126    262.082233    2.717047
263.0    -5.728627    263.083179    2.731445
264.0    -5.772295    264.084132    2.745904
265.0    -5.816128    265.085092    2.760424
266.0    -5.860128    266.086060    2.775005
267.0    -5.904293    267.087034    2.789650
268.0    -5.948625    268.088017    2.804358
269.0    -5.993122    269.089006    2.819130
270.0    -6.037786    270.090003    2.833967
271.0    -6.082616    271.091007    2.848869
272.0    -6.127612    272.092019    2.863838
273.0    -6.172773    273.093038    2.878874
274.0    -6.218101    274.094065    2.893978
275.0    -6.263595    275.095100    2.909151
276.0    -6.309256    276.096141    2.924394
277.0    -6.355082    277.097191    2.939707
278.0    -6.401074    278.098248    2.955092
279.0    -6.447232    279.099313    2.970549
280.0    -6.493557    280.100385    2.986079
281.0    -6.540047    281.101465    3.001683
282.0    -6.586704    282.102553    3.017360
283.0    -6.633527    283.103649    3.033111
284.0    -6.680516    284.104752    3.048937
285.0    -6.727671    285.105863    3.064838
286.0    -6.774992    286.106982    3.080815
287.0    -6.822479    287.108109    3.096868
288.0    -6.870132    288.109244    3.112998
289.0    -6.917952    289.110387    3.129205
290.0    -6.965937    290.111537    3.145491
291.0    -7.014089    291.112696    3.161854
